335
332
340
336
332
344
343
338
343
339
335
343
344
340
342
343
340
342
349
344
340
347
343
339
350
345
339
347
345
341
349
348
341
344
349
348
349
350
346
351
368
371
364
366
355
348
358
352
341
347
345
338
345
344
338
339
342
335
321
309
299
313
378
479
522
458
312
230
287
356
368
359
344
334
337
340
336
336
342
338
336
344
340
335
344
343
337
346
345
337
346
347
345
348
352
347
351
356
355
354
359
356
353
364
361
359
369
366
360
369
366
357
360
356
346
347
344
334
330
330
324
323
334
328
320
327
325
322
332
329
325
333
327
322
330
331
327
329
335
334
332
337
334
333
342
338
333
341
337
332
343
339
333
339
340
336
340
344
338
337
341
337
338
346
342
337
347
343
337
345
345
341
349
345
339
343
345
340
342
345
341
341
348
343
338
348
345
341
348
345
340
351
348
341
346
347
343
347
353
348
345
353
354
359
371
364
352
356
352
344
350
345
336
344
344
337
340
342
336
337
336
313
298
303
321
384
494
513
414
287
231
286
356
366
346
339
338
335
338
339
335
339
344
341
337
345
342
336
347
346
343
353
349
342
350
351
346
352
355
350
353
358
354
355
365
366
364
372
367
362
372
368
364
372
365
356
362
356
343
339
339
332
326
327
324
323
328
322
317
329
327
320
328
323
319
327
328
322
327
332
327
327
332
329
330
338
333
328
336
334
330
339
337
332
340
337
333
339
337
332
337
344
338
334
339
337
336
344
340
336
345
339
332
343
343
337
342
341
336
339
341
338
339
344
343
343
348
340
338
350
348
342
350
351
350
366
370
357
355
351
346
347
346
339
339
345
341
336
345
340
335
344
334
309
304
304
318
383
483
508
429
300
230
275
347
362
350
346
338
333
343
340
336
344
341
336
346
344
341
345
348
344
346
349
344
344
352
349
346
355
354
350
359
355
351
363
364
360
369
371
367
369
372
368
368
373
367
360
363
355
343
342
333
326
335
329
322
328
324
319
325
327
319
322
328
320
320
330
326
324
334
329
322
333
329
327
338
336
329
336
337
330
336
340
334
333
338
335
332
339
338
335
344
340
333
343
342
336
343
343
337
341
343
338
340
345
338
336
345
340
336
342
339
335
346
344
337
344
344
337
341
341
336
340
345
342
344
349
346
350
369
367
358
362
356
346
353
349
340
344
344
336
339
342
337
337
342
333
310
303
300
322
399
500
517
426
281
228
305
362
365
355
340
329
333
339
335
335
342
338
336
348
345
337
345
343
337
348
349
343
349
349
344
348
350
345
348
354
352
349
358
355
353
365
364
360
369
366
358
368
367
358
360
356
347
345
343
333
329
333
327
321
331
327
321
331
328
323
332
328
323
330
330
326
331
334
330
332
337
333
330
339
335
329
339
338
332
343
341
335
342
340
334
340
342
338
338
342
337
336
342
338
335
345
343
339
349
345
335
343
341
334
343
345
339
341
342
338
337
343
341
340
348
343
338
347
342
335
345
347
345
351
348
347
358
369
363
360
358
349
346
353
347
336
345
342
336
345
342
335
344
341
328
313
300
295
325
405
507
517
414
269
233
318
365
363
353
338
331
342
340
334
343
342
335
341
345
339
341
346
340
339
349
346
340
348
348
344
355
353
349
359
357
350
358
360
356
360
364
362
363
368
365
364
374
368
358
363
357
347
350
340
329
333
329
321
325
327
321
322
326
322
321
328
325
322
328
325
322
334
332
325
332
331
327
335
336
331
332
335
333
334
340
336
333
341
338
334
341
338
330
339
338
331
339
341
333
336
340
339
339
343
336
333
342
340
336
347
343
336
344
344
339
346
345
338
345
344
339
348
352
343
341
353
359
364
370
359
348
353
348
343
350
344
336
342
341
335
340
342
336
334
330
304
295
312
348
431
515
480
349
252
247
314
364
364
342
337
334
332
338
344
339
338
344
341
339
349
344
339
348
346
342
350
348
345
356
356
349
353
356
352
351
359
357
357
367
364
360
370
371
367
374
371
364
369
364
356
357
351
338
334
333
324
322
329
324
319
327
327
319
328
325
321
329
327
320
328
329
325
327
332
328
328
334
328
328
337
333
331
340
336
332
340
335
329
336
336
333
340
342
333
335
340
335
333
339
336
335
344
341
336
343
341
334
342
340
335
342
343
336
337
343
340
340
346
342
340
346
341
338
347
343
338
347
345
342
351
349
346
355
366
364
362
359
349
346
352
344
337
344
341
336
344
339
333
340
339
330
316
300
293
317
384
484
521
443
293
227
293
355
366
361
340
329
339
337
334
341
340
336
340
343
338
340
345
340
338
349
344
341
350
348
344
353
349
344
354
352
349
357
358
354
358
364
361
361
367
364
360
368
364
360
367
357
347
350
340
328
332
329
322
325
326
320
323
328
324
322
330
325
320
329
327
323
335
332
325
335
334
327
333
334
329
332
336
332
332
341
338
334
341
336
332
342
340
334
342
341
336
344
344
338
340
342
339
339
345
340
338
345
344
338
345
342
337
347
343
338
347
344
338
344
346
341
345
346
341
342
350
344
340
350
346
338
348
343
336
348
351
347
351
348
347
361
371
365
358
356
347
343
351
346
340
347
343
336
346
343
335
344
339
319
304
298
308
364
472
528
462
325
236
280
358
371
352
347
336
329
339
337
331
339
340
336
340
344
339
338
345
341
339
347
345
341
351
350
345
354
354
350
357
355
351
359
361
356
359
365
361
361
369
366
360
366
363
357
362
355
342
343
335
329
332
328
319
323
328
321
320
328
324
320
327
325
320
329
327
322
332
331
324
331
331
327
332
334
333
335
336
332
331
340
338
334
341
338
335
344
338
331
341
342
337
342
341
335
337
342
338
338
344
340
337
344
340
336
344
341
336
347
343
336
343
341
336
340
343
336
337
342
341
340
345
340
338
347
343
335
343
343
341
350
349
345
357
366
360
359
356
346
346
351
344
340
345
340
336
345
342
336
345
341
324
311
299
302
344
433
505
476
358
250
249
328
362
357
352
340
336
345
344
341
350
347
341
349
350
342
346
353
348
346
351
347
346
355
350
348
358
354
349
360
360
355
360
360
356
365
370
367
369
373
370
368
375
367
358
364
356
347
348
336
324
330
327
320
323
324
319
321
324
318
321
330
326
320
327
325
321
330
328
324
333
332
327
334
336
331
335
338
333
333
339
335
332
341
336
330
340
336
329
338
337
332
341
339
333
339
340
333
334
339
338
338
345
341
338
346
341
334
344
344
337
344
343
336
342
343
341
345
352
347
343
351
355
361
368
358
345
355
353
343
347
342
334
344
345
339
342
341
337
338
335
309
294
303
329
400
502
500
387
270
235
298
363
366
347
342
339
333
339
342
338
339
348
345
343
349
343
339
350
350
343
351
349
345
355
354
346
350
355
352
352
360
357
356
367
366
361
371
370
366
377
372
364
370
366
354
356
355
343
336
333
324
322
330
326
319
324
321
316
329
327
317
327
327
322
330
329
324
327
329
327
330
336
332
329
336
333
332
342
338
331
340
337
331
340
338
334
340
339
334
338
341
336
339
346
341
338
347
343
336
345
343
338
349
346
338
345
344
338
343
346
341
341
347
344
340
346
343
337
348
346
339
351
351
343
350
353
353
365
366
355
352
354
347
344
347
341
336
346
342
334
342
340
333
342
334
307
300
302
325
407
513
510
395
267
236
310
367
365
342
339
333
328
341
341
332
339
338
333
338
340
335
338
343
339
340
348
343
338
350
347
343
354
351
344
353
354
351
358
360
356
360
366
362
363
368
364
361
367
360
354
358
350
339
343
335
326
333
329
322
328
330
322
323
328
323
325
331
326
321
330
328
325
336
334
324
335
336
330
335
336
330
334
337
332
333
341
336
335
343
338
333
343
340
333
342
339
333
342
341
333
338
340
336
339
342
338
334
342
339
335
344
340
335
343
341
335
345
342
335
343
343
338
340
344
340
339
346
341
339
347
344
339
350
347
338
347
352
354
368
364
347
345
345
342
342
345
337
333
339
336
334
344
339
333
340
326
302
300
308
346
445
513
457
327
240
260
332
368
357
338
338
336
332
343
343
337
346
343
335
344
345
340
343
346
344
346
350
345
345
355
349
345
354
352
350
360
361
357
365
363
360
370
372
364
368
374
370
368
370
365
356
359
350
339
341
333
323
328
325
318
328
324
318
324
324
319
320
326
320
318
327
326
322
330
327
324
335
333
327
336
334
330
336
339
332
331
337
334
332
337
335
333
341
337
333
343
340
334
341
340
335
343
342
337
340
344
339
339
344
341
338
346
343
341
349
342
337
346
344
336
345
345
338
343
349
345
348
353
347
348
358
364
364
368
358
348
355
351
342
346
342
338
345
345
339
344
344
337
336
329
305
295
314
354
442
525
481
336
243
259
329
369
363
340
335
335
333
336
341
335
334
341
337
334
342
340
336
348
345
338
348
347
340
348
351
346
349
356
351
351
355
352
353
362
359
358
369
367
361
372
370
360
365
362
352
351
346
334
330
330
323
320
327
323
318
327
324
321
329
328
324
330
325
320
330
331
325
328
332
329
330
335
333
330
337
333
328
339
337
332
342
340
332
339
337
331
336
339
336
337
340
335
337
346
340
337
346
341
333
342
343
338
346
345
338
344
342
339
340
341
338
339
344
341
337
342
339
337
346
342
336
344
342
338
346
345
341
347
349
342
346
355
361
363
364
353
345
352
349
345
352
346
337
346
344
339
344
344
339
340
328
304
297
316
366
473
543
473
319
246
293
352
375
356
336
337
338
332
337
340
335
335
339
337
337
344
342
337
346
343
335
344
343
338
347
346
341
347
349
346
350
356
350
351
359
357
357
365
362
359
367
361
354
365
359
349
353
348
336
337
333
320
323
329
324
324
329
326
322
332
328
322
332
330
324
336
334
327
332
332
330
333
334
329
332
339
333
331
338
334
332
342
338
334
344
339
331
338
338
335
340
342
334
334
340
337
338
343
339
336
345
342
336
346
343
335
345
343
337
344
345
341
345
344
338
339
347
343
338
346
343
340
349
344
336
344
342
338
348
347
343
347
349
347
354
366
364
358
355
347
344
351
344
338
344
339
335
345
340
332
339
337
321
308
300
298
335
427
503
477
365
254
245
327
364
354
350
337
332
342
341
336
342
343
339
343
349
343
340
348
344
341
349
345
342
351
348
345
354
352
348
356
358
355
360
364
361
364
371
366
368
378
374
371
380
373
366
368
359
350
353
342
331
333
330
322
325
329
324
324
329
324
320
329
326
321
331
325
321
331
329
324
332
332
328
333
335
330
331
336
334
331
338
336
334
342
335
330
341
337
331
340
339
332
337
338
333
337
341
334
333
341
337
334
344
340
336
346
340
337
349
344
337
346
344
338
342
346
340
340
344
337
339
350
345
343
354
349
346
364
366
357
360
351
341
345
345
338
337
340
333
333
339
336
335
343
335
325
316
299
297
334
406
498
510
400
264
241
317
362
366
355
336
329
339
334
331
342
338
333
346
343
340
348
345
338
343
345
342
345
348
346
346
354
351
347
359
354
347
359
357
354
364
364
360
369
369
365
370
371
363
358
361
353
344
347
336
328
335
329
324
330
326
322
329
329
322
327
332
328
329
333
327
325
335
331
328
337
335
332
342
339
332
340
340
339
345
346
339
341
343
338
339
346
342
340
348
343
336
345
343
337
346
344
338
346
346
343
347
347
341
342
348
342
339
348
343
340
349
346
341
348
344
340
351
347
341
347
350
344
345
349
343
342
350
345
343
350
346
344
354
353
348
355
355
359
369
364
354
352
352
349
349
350
344
340
345
342
338
345
344
338
345
328
303
305
313
352
451
525
474
339
244
269
345
375
358
335
336
335
333
341
340
334
342
341
339
345
345
341
344
344
339
341
348
347
344
350
345
346
354
352
349
358
355
350
359
360
357
364
367
366
366
368
362
363
368
362
358
364
353
340
340
336
329
334
328
320
326
325
321
323
325
321
321
325
321
322
331
327
323
334
330
325
336
331
326
336
336
330
336
338
333
335
341
336
334
341
336
334
343
342
337
342
339
334
344
341
336
342
341
333
337
343
340
340
343
340
338
345
339
334
345
343
337
344
343
336
344
342
336
342
343
339
341
346
342
342
347
346
344
352
349
350
367
364
352
354
350
344
351
345
337
339
342
338
336
342
338
334
339
333
315
308
298
311
383
487
518
442
302
234
296
359
365
351
341
331
329
335
331
329
341
336
330
340
339
335
344
342
337
343
342
338
343
348
343
343
350
349
347
354
350
348
358
356
352
363
362
356
365
366
360
364
366
361
358
357
347
341
344
334
326
334
329
322
329
326
319
328
327
322
327
330
325
326
329
325
326
333
329
328
336
333
327
336
336
333
342
339
332
339
339
334
339
343
338
337
340
336
332
340
339
336
344
341
334
343
345
339
345
345
340
344
344
341
345
347
341
340
346
342
339
347
345
343
349
343
338
347
347
342
346
345
340
342
344
341
341
346
343
341
348
345
342
351
351
348
356
355
360
374
365
354
355
351
348
351
349
341
340
346
342
337
346
343
337
342
323
300
303
312
351
452
514
456
328
244
266
338
368
358
341
342
339
338
347
346
339
347
346
339
347
347
343
348
352
345
345
352
348
346
352
348
344
358
357
352
360
359
356
363
361
355
363
365
364
367
371
367
364
366
361
359
360
349
339
342
335
326
331
326
319
322
320
317
320
322
317
320
325
318
316
324
324
320
328
327
324
334
332
327
337
337
332
336
337
333
334
337
334
335
342
336
331
340
338
335
345
339
332
339
338
334
342
339
333
337
341
338
338
340
335
338
346
343
340
346
343
338
347
343
337
346
347
340
345
347
344
347
352
348
348
360
367
363
363
353
345
352
349
338
346
343
335
343
344
336
339
340
335
330
316
298
294
325
384
481
518
428
284
235
291
349
368
353
333
336
340
335
336
339
337
336
343
341
337
345
339
335
346
345
338
347
348
344
349
349
344
349
355
352
352
357
355
355
363
362
358
366
363
357
366
364
359
366
363
352
350
345
335
332
332
325
323
328
324
319
328
326
320
329
328
322
329
327
323
330
328
323
327
332
327
328
335
333
330
337
334
328
338
337
333
343
340
333
341
341
334
339
340
335
338
342
340
339
342
339
336
343
340
335
346
343
335
343
343
335
341
340
336
341
344
340
341
345
342
340
348
346
340
345
341
339
348
346
340
346
345
345
356
366
359
353
351
345
343
349
342
338
345
342
336
346
346
336
341
338
323
310
301
301
342
434
514
488
364
248
251
336
366
357
349
338
333
341
339
338
344
343
337
342
342
339
342
345
342
341
348
344
340
350
350
345
353
351
347
357
357
354
360
361
356